# voltage [V], current [mA], power [mW]
1,  0.0, 0
2,  0.03, 0.15
3,  0.3, 1.5
4,  1.0, 5
5,  1.9, 9.5
6,  2.7, 13.5
7,  3.9, 19.5
8,  5.7, 28.5
9,  7.2, 36
10,  8.9, 44.5
11,  11.5, 57.5
12,  12.1, 60.5
13,  13.9, 69.5
14,  15.9, 79.5
15,  17.5, 87.5
16,  19.6, 98
17,  21.3, 106.5
